# wavelength [micron], T [1], R_f [1], R_b [1]
2.999999999999999889e-01,9.779856889977800394e-44,4.733968245098788691e-02,4.137005613777234858e-01
3.044088176352705566e-01,3.135066951539911264e-42,4.722557663188683280e-02,4.301558054103889472e-01
3.088176352705410688e-01,7.275790087844350914e-41,4.716890709798444992e-02,4.522691617552804244e-01
3.132264529058116365e-01,1.357369874653635729e-39,4.728348752738174843e-02,4.755701776876612996e-01
3.176352705410821486e-01,1.802662731865002638e-38,4.785350196905895082e-02,5.007462402430887805e-01
3.220440881763527163e-01,8.524522449340655822e-38,4.860533811178265745e-02,5.225826556960740943e-01
3.264529058116232285e-01,1.412987263473658495e-37,4.846678158561233685e-02,5.400395922593619336e-01
3.308617234468937962e-01,1.717947676806115029e-37,4.782693261313815392e-02,5.521942136694664161e-01
3.352705410821643084e-01,1.492580663735288021e-37,4.992681252126549007e-02,5.570293603306533115e-01
3.396793587174348761e-01,1.199334523567370799e-37,6.421459114433224202e-02,5.531385988635787454e-01
3.440881763527053883e-01,1.065443246661129731e-37,9.387208041806230363e-02,5.396960014717036014e-01
3.484969939879759560e-01,1.247956438382709619e-37,1.300142452111072988e-01,5.163428564696158629e-01
3.529058116232464681e-01,2.071044279003667282e-37,1.574263290510467539e-01,4.833317381735539597e-01
3.573146292585170358e-01,9.026885884235625812e-34,1.702464600253957294e-01,4.421234098026939341e-01
3.617234468937875480e-01,3.826946324752144321e-11,1.706648677038148099e-01,3.948648915792930536e-01
3.661322645290581157e-01,2.190427163772984619e-09,1.619641874799565284e-01,3.444690448973345975e-01
3.705410821643286834e-01,8.887210838509369397e-08,1.483167484465218733e-01,2.942737381188690327e-01
3.749498997995991956e-01,7.797951391306898552e-07,1.308887184221815270e-01,2.471936961240182584e-01
3.793587174348697078e-01,6.551205328915718753e-06,1.148521219557959716e-01,2.052400593837208631e-01
3.837675350701402754e-01,3.228494882646321069e-05,1.017763880180709846e-01,1.691111127542247183e-01
3.881763527054108431e-01,1.415042440020305005e-04,9.084634645867130376e-02,1.387565692412537077e-01
3.925851703406813553e-01,4.751085442382393465e-04,7.990514102819977482e-02,1.128926498940222289e-01
3.969939879759519230e-01,1.403349826372338096e-03,6.924130828248473146e-02,9.077675804589688258e-02
4.014028056112224352e-01,4.034713438348313912e-03,6.000342028552314161e-02,7.281173396257729913e-02
4.058116232464930029e-01,9.276936770316981593e-03,5.288276511862342877e-02,5.909065780787240568e-02
4.102204408817635151e-01,1.772064494294343234e-02,4.841577449987755077e-02,4.925685497962906112e-02
4.146292585170340828e-01,2.767547319919468410e-02,4.703358654231487579e-02,4.203051052925430020e-02
4.190380761523045949e-01,4.249071075315744017e-02,4.821452183394855928e-02,3.718504068747197772e-02
4.234468937875751626e-01,5.664240169380068551e-02,5.123160756098088520e-02,3.530548782086947307e-02
4.278557114228457303e-01,6.744496279964341812e-02,5.629321821671020437e-02,3.853748710626002383e-02
4.322645290581162425e-01,7.558092808298645660e-02,6.448691872893369537e-02,4.752636113120214251e-02
4.366733466933867547e-01,8.119933063925612038e-02,7.553071563822549850e-02,5.810886931812267453e-02
4.410821643286573224e-01,8.446219614700836709e-02,8.709530909846079083e-02,6.432809100582231876e-02
4.454909819639278901e-01,8.878619093778776505e-02,9.718062359907099490e-02,6.427639155965449158e-02
4.498997995991984022e-01,9.257917503004774173e-02,1.041805997987356319e-01,5.629029523309713595e-02
4.543086172344689144e-01,9.845346416783991306e-02,1.081288280192900381e-01,4.462422908301146712e-02
4.587174348697394821e-01,1.049711284154735275e-01,1.100616827821295080e-01,3.276193968191472988e-02
4.631262525050100498e-01,1.121747851029667037e-01,1.114598911635238110e-01,2.484715258071704125e-02
4.675350701402805620e-01,1.197627896540333498e-01,1.137531541302603255e-01,2.340381120162765213e-02
4.719438877755510742e-01,1.276332027207587316e-01,1.179054590020199716e-01,2.893728909572560598e-02
4.763527054108216419e-01,1.354184984506648093e-01,1.239162629524813153e-01,4.013033849141221104e-02
4.807615230460922096e-01,1.424180634480911034e-01,1.304565846022541498e-01,5.420904390552486185e-02
4.851703406813627772e-01,1.493071193809058506e-01,1.359792467012338468e-01,6.805680231852721807e-02
4.895791583166332894e-01,1.585678329997070313e-01,1.390475123138029401e-01,7.937438439711347327e-02
4.939879759519038016e-01,1.722586336679875485e-01,1.389034479512164244e-01,8.691680496364923014e-02
4.983967935871743693e-01,1.889316489798089638e-01,1.350617134795384644e-01,8.878125492869563817e-02
5.028056112224449370e-01,2.104533955235015352e-01,1.280407720866454935e-01,8.422751055413998933e-02
5.072144288577153937e-01,2.366399101881841993e-01,1.181897721740580998e-01,7.375427996206772308e-02
5.116232464929859614e-01,2.672286251226284048e-01,1.064130593169322070e-01,5.979175708395832040e-02
5.160320641282565290e-01,3.025324753025885327e-01,9.468423894986817413e-02,4.543544427202184099e-02
5.204408817635270967e-01,3.388180014030737208e-01,8.528654969800085472e-02,3.308163224360460841e-02
5.248496993987976644e-01,3.705647524076448041e-01,8.016281219113972900e-02,2.564172808975590662e-02
5.292585170340681211e-01,4.007583247498794909e-01,7.982160876107419201e-02,2.421446331995033563e-02
5.336673346693386888e-01,4.272731234471189299e-01,8.215787666845190962e-02,2.746300516608410347e-02
5.380761523046092565e-01,4.527666961938093815e-01,8.425862777560363948e-02,3.299271389651237119e-02
5.424849699398797132e-01,4.734342811897369052e-01,8.271217086039395205e-02,3.742231997396241322e-02
5.468937875751502808e-01,4.908197852647515069e-01,7.658913805768934047e-02,3.960553803749575219e-02
5.513026052104208485e-01,5.066088009432673234e-01,6.746931248099863332e-02,4.067693048705467440e-02
5.557114228456914162e-01,5.148336690049709619e-01,5.843636828470491484e-02,4.278832108213713459e-02
5.601202404809619839e-01,5.140383500332433853e-01,5.375794167254784733e-02,4.930543293471529448e-02
5.645290581162325516e-01,4.993612795111094238e-01,5.646326119590434206e-02,6.201974633185691060e-02
5.689378757515030083e-01,4.751613384560804954e-01,6.844264594655526113e-02,8.183551388722561104e-02
5.733466933867735760e-01,4.391337330599491273e-01,8.585951242725230192e-02,1.035516113323965981e-01
5.777555110220440326e-01,4.025438019267527090e-01,1.027913088753781706e-01,1.212521280955236314e-01
5.821643286573146003e-01,3.686822000323302095e-01,1.163146564454372867e-01,1.335459774014335355e-01
5.865731462925851680e-01,3.373534177633251141e-01,1.250308528877504821e-01,1.404762632893939989e-01
5.909819639278557357e-01,3.084144583847561183e-01,1.279769990987033035e-01,1.420164680919054623e-01
5.953907815631263034e-01,2.812975445280896380e-01,1.256754069325344558e-01,1.387665346009643863e-01
5.997995991983968711e-01,2.567697012922440236e-01,1.198729677069829136e-01,1.321357359451187374e-01
6.042084168336674388e-01,2.359977232504455735e-01,1.119308431016898392e-01,1.238743775246341772e-01
6.086172344689378955e-01,2.174733270214324610e-01,1.027330673133400457e-01,1.145490905420012695e-01
6.130260521042084632e-01,2.022517569428921580e-01,9.378719675298562153e-02,1.057748027400253477e-01
6.174348697394789198e-01,1.917342461646536489e-01,8.561067869991915991e-02,9.811956000129296029e-02
6.218436873747494875e-01,1.846341634495638484e-01,7.809962019395087773e-02,9.117520520424821084e-02
6.262525050100200552e-01,1.798048894205309667e-01,7.154816787187344429e-02,8.519533304838208809e-02
6.306613226452906229e-01,1.778205073449289353e-01,6.634480299122944014e-02,8.101738225528148929e-02
6.350701402805611906e-01,1.728708229117985884e-01,6.326804544876557523e-02,8.070286421597129556e-02
6.394789579158317583e-01,1.611000471219407315e-01,6.542530067989964226e-02,8.893601241498771959e-02
6.438877755511022150e-01,1.430613044045620785e-01,7.899277728712597590e-02,1.138223240047005758e-01
6.482965931863727826e-01,1.160280366804583851e-01,1.057667623185045286e-01,1.526571994095564377e-01
6.527054108216432393e-01,8.441369175860830021e-02,1.541267530403790387e-01,2.099058569577388900e-01
6.571142284569138070e-01,4.835809269788923781e-02,2.191804677363728970e-01,2.708434088091081215e-01
6.615230460921843747e-01,2.478955082569120685e-02,2.782381536883842266e-01,3.099307311719058933e-01
6.659318637274549424e-01,1.289679241484547462e-02,3.198413162179020719e-01,3.238800485009190044e-01
6.703406813627255101e-01,5.919240034151076156e-03,3.592945766084716941e-01,3.293907795491262114e-01
6.747494989979960778e-01,2.541509642529710383e-03,3.871031648908859202e-01,3.202587338124069927e-01
6.791583166332666455e-01,1.096783259739862477e-03,4.096493369405747598e-01,3.075974306838974437e-01
6.835671342685371021e-01,4.715895475161688104e-04,4.136423018005149776e-01,2.828781616722763070e-01
6.879759519038076698e-01,2.367453111625395391e-04,4.124534286748106071e-01,2.605750899403291299e-01
6.923847695390781265e-01,1.290200692274377282e-04,4.055382786536084194e-01,2.392648898759250908e-01
6.967935871743486942e-01,7.503775196181422036e-05,3.947651043056495945e-01,2.208989095332045682e-01
7.012024048096192619e-01,4.871536708556871258e-05,3.818116876030812068e-01,2.069498668718670609e-01
7.056112224448898296e-01,3.447045397662860819e-05,3.648883919847731305e-01,1.958495495544356479e-01
7.100200400801603973e-01,2.841714875044295865e-05,3.455548847215377806e-01,1.880595428871189856e-01
7.144288577154309650e-01,2.558194702811634902e-05,3.184786978575786520e-01,1.794879242109244377e-01
7.188376753507014216e-01,2.585684860917760583e-05,2.919807180486905795e-01,1.743611805866964459e-01
7.232464929859719893e-01,2.830383547295024888e-05,2.680343333077800372e-01,1.728741258015042415e-01
7.276553106212425570e-01,3.381556761608069822e-05,2.437372745133148944e-01,1.732564911852504386e-01
7.320641282565130137e-01,4.443933975132349605e-05,2.205466908579847563e-01,1.752875153860967705e-01
7.364729458917835814e-01,6.432061396799992913e-05,1.977029615615174540e-01,1.782759351605458786e-01
7.408817635270541491e-01,1.014295164684382279e-04,1.739679900881614671e-01,1.822465451034059325e-01
7.452905811623247168e-01,1.664599397511656246e-04,1.539824400808513516e-01,1.866764694046454398e-01
7.496993987975952844e-01,2.938838465747288758e-04,1.341500141471125007e-01,1.916247315197094347e-01
7.541082164328658521e-01,5.086420234874373773e-04,1.167246888306053137e-01,1.974288842241478104e-01
7.585170340681363088e-01,9.561023787337357945e-04,1.001836290096426579e-01,2.030481601735164843e-01
7.629258517034068765e-01,1.652381244081768110e-03,8.652111303521692331e-02,2.095511399656259377e-01
7.673346693386773332e-01,2.751531457688639361e-03,7.506467398595606522e-02,2.162488553200222763e-01
7.717434869739479009e-01,4.827983650243877073e-03,6.494573367518371998e-02,2.226397291691559477e-01
7.761523046092184686e-01,8.616623040797763075e-03,5.653694862033782631e-02,2.290680320027608241e-01
7.805611222444890362e-01,1.373511713694416242e-02,5.058110075808494588e-02,2.358529523838863717e-01
7.849699398797596039e-01,2.237522654066788005e-02,4.617102392642065400e-02,2.427389720605403201e-01
7.893787575150301716e-01,3.303109143073442583e-02,4.406476572683436926e-02,2.499149597814554757e-01
7.937875751503007393e-01,4.901937684725691385e-02,4.453843358203885688e-02,2.574248010876558079e-01
7.981963927855711960e-01,6.816146704352210595e-02,4.840530910182835878e-02,2.651729377033304469e-01
8.026052104208416527e-01,9.086968899945770117e-02,5.603157524585060389e-02,2.730877726444024822e-01
8.070140280561122204e-01,1.173500443830570450e-01,6.731573673616414455e-02,2.809366015475684986e-01
8.114228456913827880e-01,1.454885035238012159e-01,8.062694454938215682e-02,2.882674913645422721e-01
8.158316633266533557e-01,1.733784756991307574e-01,9.375770564259015838e-02,2.947563092309444799e-01
8.202404809619239234e-01,2.035265693763193828e-01,1.064242298489289362e-01,3.002459641068391250e-01
8.246492985971944911e-01,2.347198296026004327e-01,1.173022730725637175e-01,3.045558913231956599e-01
8.290581162324650588e-01,2.683398341183114155e-01,1.269745644093474568e-01,3.080680846811786333e-01
8.334669338677356265e-01,3.136952854826511317e-01,1.408726992769398501e-01,3.116330680130687258e-01
8.378757515030059722e-01,3.384138613339874868e-01,1.445793072503785137e-01,3.138946067199032686e-01
8.422845691382765398e-01,3.479935569898621184e-01,1.420897856348364852e-01,3.161999227453828332e-01
8.466933867735471075e-01,3.575715550404682808e-01,1.420479900966668818e-01,3.196754141044262365e-01
8.511022044088176752e-01,3.670622315458323404e-01,1.450574192421284769e-01,3.244011339996961119e-01
8.555110220440882429e-01,3.744797841055476084e-01,1.508339904715636504e-01,3.305136912941900595e-01
8.599198396793588106e-01,3.751467762261136984e-01,1.566232559833987403e-01,3.378705564387797233e-01
8.643286573146293783e-01,3.738221963001759351e-01,1.642313481496013305e-01,3.462734299795650061e-01
8.687374749498999460e-01,3.702307978310261372e-01,1.726637590176101633e-01,3.553545701554181035e-01
8.731462925851705137e-01,3.652706489679358737e-01,1.816591773088361284e-01,3.647899324220810202e-01
8.775551102204408593e-01,3.657971566940135810e-01,1.958452272019000073e-01,3.744912035997911559e-01
8.819639278557114270e-01,3.642238082763417650e-01,2.094053409763922124e-01,3.841722000696285999e-01
8.863727454909819947e-01,3.552252091793425270e-01,2.167921856033022399e-01,3.933298937571707565e-01
8.907815631262525624e-01,3.465076306100550174e-01,2.238132128742842675e-01,4.022668336089313956e-01
8.951903807615231301e-01,3.376049402289137968e-01,2.296780681372347366e-01,4.106923041225000737e-01
8.995991983967936978e-01,3.291222945373256659e-01,2.349780630798987968e-01,4.186944192991022828e-01
9.040080160320642655e-01,3.212064627210099998e-01,2.397807562656058544e-01,4.261763683198168118e-01
9.084168336673348332e-01,3.134757981751531974e-01,2.435967011610003508e-01,4.332276624816157606e-01
9.128256513026051788e-01,3.053581066281154666e-01,2.458573866500480820e-01,4.397575093772638777e-01
9.172344689378757465e-01,2.973291647913826607e-01,2.470361759339922414e-01,4.458313109935881369e-01
9.216432865731463142e-01,2.901904690112619978e-01,2.479722932042250083e-01,4.516297525401278268e-01
9.260521042084168819e-01,2.841803469755791456e-01,2.489860790816998126e-01,4.572192743163354112e-01
9.304609218436874496e-01,2.788159162169742689e-01,2.497294479943178991e-01,4.626401202674366719e-01
9.348697394789580173e-01,2.753372014549450020e-01,2.513660230507818727e-01,4.681262651059467372e-01
9.392785571142285850e-01,2.721194883948265253e-01,2.525756416961105200e-01,4.734012193575651284e-01
9.436873747494991527e-01,2.695696995041436117e-01,2.535860284512850837e-01,4.784866979790499131e-01
9.480961923847697204e-01,2.670017610936753494e-01,2.540567222092002808e-01,4.833676733256794256e-01
9.525050100200400660e-01,2.644750549520599181e-01,2.543416599807998835e-01,4.880944764324425811e-01
9.569138276553106337e-01,2.620935355545091494e-01,2.546149700544477756e-01,4.927899897881530822e-01
9.613226452905812014e-01,2.594942979696546193e-01,2.543528325976044946e-01,4.973744468059539958e-01
9.657314629258517691e-01,2.562538444687045280e-01,2.529911040150959467e-01,5.017676568862070585e-01
9.701402805611223368e-01,2.531860432362424418e-01,2.514904741737151728e-01,5.060781180466803475e-01
9.745490981963929045e-01,2.495272927925024087e-01,2.490100369481263731e-01,5.102617807661123939e-01
9.789579158316634722e-01,2.460414037712284618e-01,2.465324122951056129e-01,5.144386170932058189e-01
9.833667334669340399e-01,2.428768247487957943e-01,2.445152291632921027e-01,5.186469857317606014e-01
9.877755511022043855e-01,2.398184861255605593e-01,2.427576186704391847e-01,5.228801574423108667e-01
9.921843687374749532e-01,2.367387305596139746e-01,2.409607316491088613e-01,5.271082846582146875e-01
9.965931863727455209e-01,2.336533132407841717e-01,2.390177004537464567e-01,5.313084042268158003e-01
1.001002004008016089e+00,2.305283220990473614e-01,2.371097016317783579e-01,5.355287146481673144e-01
1.005410821643286656e+00,2.271792988645495170e-01,2.355121757415827577e-01,5.398552105295064685e-01
1.009819639278557224e+00,2.238831209449290149e-01,2.339293717196177236e-01,5.441789562013911175e-01
1.014228456913827792e+00,2.206704513773055099e-01,2.324167416111149742e-01,5.485001413697214723e-01
1.018637274549098359e+00,2.174932913859934092e-01,2.309149465701990922e-01,5.528273072161717927e-01
1.023046092184368927e+00,2.143926627709620003e-01,2.295114307220009753e-01,5.571586127373894248e-01
1.027454909819639273e+00,2.113583146235781529e-01,2.281929844359434356e-01,5.614791081309608023e-01
1.031863727454909840e+00,2.084272454439333178e-01,2.270007794676068835e-01,5.657898647342530785e-01
1.036272545090180408e+00,2.056078475879267453e-01,2.258942999905507731e-01,5.700479105105377142e-01
1.040681362725450976e+00,2.027804582199332073e-01,2.247273512248076088e-01,5.742657677650361281e-01
1.045090180360721543e+00,2.000316441946086432e-01,2.236482333759385877e-01,5.784612116220554379e-01
1.049498997995992111e+00,1.972879544844970690e-01,2.225395840964832228e-01,5.826338613293704505e-01
1.053907815631262679e+00,1.947193741197114636e-01,2.216618136609682932e-01,5.867647219472118536e-01
1.058316633266533247e+00,1.921914402728551186e-01,2.208281919864082121e-01,5.908588687955197427e-01
1.062725450901803592e+00,1.897078165134432060e-01,2.200490150670883771e-01,5.949231557361618350e-01
1.067134268537074160e+00,1.872801233200907522e-01,2.193398506168859341e-01,5.989556792532401142e-01
1.071543086172344728e+00,1.849136554222659545e-01,2.187217802715198667e-01,6.029662086382643338e-01
1.075951903807615295e+00,1.826084509689689939e-01,2.181995980826032244e-01,6.069491040956984662e-01
1.080360721442885863e+00,1.803024020570163644e-01,2.176544403755847901e-01,6.108935726151298873e-01
1.084769539078156431e+00,1.776346381726291723e-01,2.164573316491116561e-01,6.147887611138251884e-01
1.089178356713426998e+00,1.747775125107495497e-01,2.148554797337430544e-01,6.186329229371623217e-01
1.093587174348697566e+00,1.719185105063424646e-01,2.131771220255442301e-01,6.224203370403788016e-01
1.097995991983968134e+00,1.691013780913739606e-01,2.114731169051758397e-01,6.261667169093166896e-01
1.102404809619238479e+00,1.662945370107123122e-01,2.097105778754823624e-01,6.298681514624884237e-01
1.106813627254509047e+00,1.634858322346565418e-01,2.078496399064932165e-01,6.335214756782340251e-01
1.111222444889779615e+00,1.606880780368081518e-01,2.058478599552091837e-01,6.371379512740038553e-01
1.115631262525050182e+00,1.578520177880416986e-01,2.036647075502783510e-01,6.407037261455944543e-01
1.120040080160320750e+00,1.550707654992136697e-01,2.014823311829612440e-01,6.442215233073163017e-01
1.124448897795591318e+00,1.519981471513391358e-01,1.986470645587842532e-01,6.476820527190568777e-01
1.128857715430861886e+00,1.486868454858736865e-01,1.952273600240798934e-01,6.510808803292525981e-01
1.133266533066132453e+00,1.449857872105345946e-01,1.909440943984145045e-01,6.543899803966434225e-01
1.137675350701402799e+00,1.412429018801958924e-01,1.864734201936735780e-01,6.576445599179676638e-01
1.142084168336673367e+00,1.372132005467658622e-01,1.813617145291667176e-01,6.608336325931875033e-01
1.146492985971943934e+00,1.328839850051568849e-01,1.756063026756836676e-01,6.639560477893058366e-01
1.150901803607214502e+00,1.285385152676772891e-01,1.697720265801002104e-01,6.670394311549474597e-01
1.155310621242485070e+00,1.237466838012995368e-01,1.630660253218980948e-01,6.700572538034734738e-01
1.159719438877755637e+00,1.190859655585349841e-01,1.565823218709104236e-01,6.730289476446981167e-01
1.164128256513026205e+00,1.137141496136351432e-01,1.487394837379260593e-01,6.759496757919348786e-01
